 # JD & magnitude & iband & lite [d] & alpha [deg] & H0 [mag] & H0_obs [mag]
   2458773.1944269901        31.248720846938312                7  -5.7755183314369954E-003   10.000000000000050        31.248720846938312        0.0000000000000000     
   2458773.1954270001        31.248731948316038                7  -5.7755183314369954E-003   10.000000000000050        31.248731948316038        0.0000000000000000     
   2458773.1964270002        31.248724351970129                7  -5.7755183314369954E-003   10.000000000000050        31.248724351970129        0.0000000000000000     
   2458773.1974269999        31.248704736426024                7  -5.7755183314369954E-003   10.000000000000050        31.248704736426024        0.0000000000000000     
   2458773.1984270001        31.248673230500330                7  -5.7755183314369954E-003   10.000000000000050        31.248673230500330        0.0000000000000000     
   2458773.1994269998        31.248631775896449                7  -5.7755183314369954E-003   10.000000000000050        31.248631775896449        0.0000000000000000     
   2458773.2004269999        31.248586218172267                7  -5.7755183314369954E-003   10.000000000000050        31.248586218172267        0.0000000000000000     
   2458773.2014270001        31.248537467114815                7  -5.7755183314369954E-003   10.000000000000050        31.248537467114815        0.0000000000000000     
   2458773.2024269998        31.248485465900302                7  -5.7755183314369954E-003   10.000000000000050        31.248485465900302        0.0000000000000000     
   2458773.2034270000        31.248431717869703                7  -5.7755183314369954E-003   10.000000000000050        31.248431717869703        0.0000000000000000     
   2458773.2044270001        31.248376926324063                7  -5.7755183314369954E-003   10.000000000000050        31.248376926324063        0.0000000000000000     
   2458773.2054269998        31.248321491343734                7  -5.7755183314369954E-003   10.000000000000050        31.248321491343734        0.0000000000000000     
   2458773.2064270000        31.248266729426362                7  -5.7755183314369954E-003   10.000000000000050        31.248266729426362        0.0000000000000000     
   2458773.2074270002        31.248215052369446                7  -5.7755183314369954E-003   10.000000000000050        31.248215052369446        0.0000000000000000     
   2458773.2084269999        31.248170057689126                7  -5.7755183314369954E-003   10.000000000000050        31.248170057689126        0.0000000000000000     
   2458773.2094270000        31.248134720823636                7  -5.7755183314369954E-003   10.000000000000050        31.248134720823636        0.0000000000000000     
   2458773.2104270002        31.248123221974350                7  -5.7755183314369954E-003   10.000000000000050        31.248123221974350        0.0000000000000000     
   2458773.2114269999        31.248132483093617                7  -5.7755183314369954E-003   10.000000000000050        31.248132483093617        0.0000000000000000     
   2458773.2124270000        31.248141631286693                7  -5.7755183314369954E-003   10.000000000000050        31.248141631286693        0.0000000000000000     
   2458773.2134270002        31.248122425756755                7  -5.7755183314369954E-003   10.000000000000050        31.248122425756755        0.0000000000000000     
   2458773.2144269999        31.248015322713410                7  -5.7755183314369954E-003   10.000000000000050        31.248015322713410        0.0000000000000000     
   2458773.2154270001        31.247873248137225                7  -5.7755183314369954E-003   10.000000000000050        31.247873248137225        0.0000000000000000     
   2458773.2164269998        31.247701046729336                7  -5.7755183314369954E-003   10.000000000000050        31.247701046729336        0.0000000000000000     
   2458773.2174269999        31.247503607143305                7  -5.7755183314369954E-003   10.000000000000050        31.247503607143305        0.0000000000000000     
   2458773.2184270001        31.247288670664886                7  -5.7755183314369954E-003   10.000000000000050        31.247288670664886        0.0000000000000000     
   2458773.2194269998        31.247067637527991                7  -5.7755183314369954E-003   10.000000000000050        31.247067637527991        0.0000000000000000     
   2458773.2204270000        31.246841628780800                7  -5.7755183314369954E-003   10.000000000000050        31.246841628780800        0.0000000000000000     
   2458773.2214270001        31.246614337633247                7  -5.7755183314369954E-003   10.000000000000050        31.246614337633247        0.0000000000000000     
   2458773.2224269998        31.246388093721066                7  -5.7755183314369954E-003   10.000000000000050        31.246388093721066        0.0000000000000000     
   2458773.2234270000        31.246162854171331                7  -5.7755183314369954E-003   10.000000000000050        31.246162854171331        0.0000000000000000     
   2458773.2244270002        31.245942495120630                7  -5.7755183314369954E-003   10.000000000000050        31.245942495120630        0.0000000000000000     
   2458773.2254269999        31.245728553197772                7  -5.7755183314369954E-003   10.000000000000050        31.245728553197772        0.0000000000000000     
   2458773.2264270000        31.245528641236106                7  -5.7755183314369954E-003   10.000000000000050        31.245528641236106        0.0000000000000000     
   2458773.2274270002        31.245227293824527                7  -5.7755183314369954E-003   10.000000000000050        31.245227293824527        0.0000000000000000     
   2458773.2284269999        31.244888872727657                7  -5.7755183314369954E-003   10.000000000000050        31.244888872727657        0.0000000000000000     
   2458773.2294270000        31.244538558906342                7  -5.7755183314369954E-003   10.000000000000050        31.244538558906342        0.0000000000000000     
   2458773.2304270002        31.244216448050604                7  -5.7755183314369954E-003   10.000000000000050        31.244216448050604        0.0000000000000000     
   2458773.2314269999        31.243915716149829                7  -5.7755183314369954E-003   10.000000000000050        31.243915716149829        0.0000000000000000     
   2458773.2324270001        31.243520554331123                7  -5.7755183314369954E-003   10.000000000000050        31.243520554331123        0.0000000000000000     
   2458773.2334270002        31.243073888602616                7  -5.7755183314369954E-003   10.000000000000050        31.243073888602616        0.0000000000000000     
   2458773.2344269999        31.242591375835463                7  -5.7755183314369954E-003   10.000000000000050        31.242591375835463        0.0000000000000000     
   2458773.2354270001        31.242106284330777                7  -5.7755183314369954E-003   10.000000000000050        31.242106284330777        0.0000000000000000     
   2458773.2364269998        31.241572576228258                7  -5.7755183314369954E-003   10.000000000000050        31.241572576228258        0.0000000000000000     
   2458773.2374270000        31.240931974816139                7  -5.7755183314369954E-003   10.000000000000050        31.240931974816139        0.0000000000000000     
   2458773.2384270001        31.240194884551890                7  -5.7755183314369954E-003   10.000000000000050        31.240194884551890        0.0000000000000000     
   2458773.2394269998        31.239424367600620                7  -5.7755183314369954E-003   10.000000000000050        31.239424367600620        0.0000000000000000     
   2458773.2404270000        31.238626234938017                7  -5.7755183314369954E-003   10.000000000000050        31.238626234938017        0.0000000000000000     
   2458773.2414270001        31.237773466471253                7  -5.7755183314369954E-003   10.000000000000050        31.237773466471253        0.0000000000000000     
   2458773.2424269998        31.236892094473752                7  -5.7755183314369954E-003   10.000000000000050        31.236892094473752        0.0000000000000000     
   2458773.2434270000        31.235864705892098                7  -5.7755183314369954E-003   10.000000000000050        31.235864705892098        0.0000000000000000     
   2458773.2444270002        31.234769547169957                7  -5.7755183314369954E-003   10.000000000000050        31.234769547169957        0.0000000000000000     
   2458773.2454269999        31.233695279104797                7  -5.7755183314369954E-003   10.000000000000050        31.233695279104797        0.0000000000000000     
   2458773.2464270000        31.232617252391233                7  -5.7755183314369954E-003   10.000000000000050        31.232617252391233        0.0000000000000000     
   2458773.2474270002        31.231542534712023                7  -5.7755183314369954E-003   10.000000000000050        31.231542534712023        0.0000000000000000     
   2458773.2484269999        31.230494562387705                7  -5.7755183314369954E-003   10.000000000000050        31.230494562387705        0.0000000000000000     
   2458773.2494270001        31.229548369885507                7  -5.7755183314369954E-003   10.000000000000050        31.229548369885507        0.0000000000000000     
   2458773.2504270002        31.228761049172327                7  -5.7755183314369954E-003   10.000000000000050        31.228761049172327        0.0000000000000000     
   2458773.2514269999        31.228049022037482                7  -5.7755183314369954E-003   10.000000000000050        31.228049022037482        0.0000000000000000     
   2458773.2524270001        31.227415786011761                7  -5.7755183314369954E-003   10.000000000000050        31.227415786011761        0.0000000000000000     
   2458773.2534269998        31.226880367699351                7  -5.7755183314369954E-003   10.000000000000050        31.226880367699351        0.0000000000000000     
   2458773.2544269999        31.226472151066144                7  -5.7755183314369954E-003   10.000000000000050        31.226472151066144        0.0000000000000000     
   2458773.2554270001        31.226003970362971                7  -5.7755183314369954E-003   10.000000000000050        31.226003970362971        0.0000000000000000     
   2458773.2564269998        31.225544720328593                7  -5.7755183314369954E-003   10.000000000000050        31.225544720328593        0.0000000000000000     
   2458773.2574270000        31.225168374762426                7  -5.7755183314369954E-003   10.000000000000050        31.225168374762426        0.0000000000000000     
   2458773.2584270001        31.224601957609831                7  -5.7755183314369954E-003   10.000000000000050        31.224601957609831        0.0000000000000000     
   2458773.2594269998        31.223936494582301                7  -5.7755183314369954E-003   10.000000000000050        31.223936494582301        0.0000000000000000     
   2458773.2604270000        31.223205360883494                7  -5.7755183314369954E-003   10.000000000000050        31.223205360883494        0.0000000000000000     
   2458773.2614270002        31.222429090527331                7  -5.7755183314369954E-003   10.000000000000050        31.222429090527331        0.0000000000000000     
   2458773.2624269999        31.221636373766280                7  -5.7755183314369954E-003   10.000000000000050        31.221636373766280        0.0000000000000000     
   2458773.2634270000        31.220853671624820                7  -5.7755183314369954E-003   10.000000000000050        31.220853671624820        0.0000000000000000     
   2458773.2644270002        31.220090259616171                7  -5.7755183314369954E-003   10.000000000000050        31.220090259616171        0.0000000000000000     
   2458773.2654269999        31.219366840902879                7  -5.7755183314369954E-003   10.000000000000050        31.219366840902879        0.0000000000000000     
   2458773.2664270001        31.218724671674913                7  -5.7755183314369954E-003   10.000000000000050        31.218724671674913        0.0000000000000000     
   2458773.2674270002        31.218206511866651                7  -5.7755183314369954E-003   10.000000000000050        31.218206511866651        0.0000000000000000     
   2458773.2684269999        31.217878690770810                7  -5.7755183314369954E-003   10.000000000000050        31.217878690770810        0.0000000000000000     
   2458773.2694270001        31.217654558303174                7  -5.7755183314369954E-003   10.000000000000050        31.217654558303174        0.0000000000000000     
   2458773.2704269998        31.217535050891144                7  -5.7755183314369954E-003   10.000000000000050        31.217535050891144        0.0000000000000000     
   2458773.2714269999        31.217535273210810                7  -5.7755183314369954E-003   10.000000000000050        31.217535273210810        0.0000000000000000     
   2458773.2724270001        31.217535399716546                7  -5.7755183314369954E-003   10.000000000000050        31.217535399716546        0.0000000000000000     
   2458773.2734269998        31.217535185464872                7  -5.7755183314369954E-003   10.000000000000050        31.217535185464872        0.0000000000000000     
   2458773.2744270000        31.217535042319039                7  -5.7755183314369954E-003   10.000000000000050        31.217535042319039        0.0000000000000000     
   2458773.2754270001        31.217535182718965                7  -5.7755183314369954E-003   10.000000000000050        31.217535182718965        0.0000000000000000     
   2458773.2764269998        31.217534889017298                7  -5.7755183314369954E-003   10.000000000000050        31.217534889017298        0.0000000000000000     
   2458773.2774270000        31.217535275896907                7  -5.7755183314369954E-003   10.000000000000050        31.217535275896907        0.0000000000000000     
   2458773.2784270002        31.217535269178622                7  -5.7755183314369954E-003   10.000000000000050        31.217535269178622        0.0000000000000000     
   2458773.2794269999        31.217535153936240                7  -5.7755183314369954E-003   10.000000000000050        31.217535153936240        0.0000000000000000     
   2458773.2804270000        31.217535034307144                7  -5.7755183314369954E-003   10.000000000000050        31.217535034307144        0.0000000000000000     
   2458773.2814270002        31.217534975032251                7  -5.7755183314369954E-003   10.000000000000050        31.217534975032251        0.0000000000000000     
   2458773.2824269999        31.217535398256903                7  -5.7755183314369954E-003   10.000000000000050        31.217535398256903        0.0000000000000000     
   2458773.2834270000        31.217535851565245                7  -5.7755183314369954E-003   10.000000000000050        31.217535851565245        0.0000000000000000     
   2458773.2844270002        31.217534336138485                7  -5.7755183314369954E-003   10.000000000000050        31.217534336138485        0.0000000000000000     
   2458773.2854269999        31.217534763572129                7  -5.7755183314369954E-003   10.000000000000050        31.217534763572129        0.0000000000000000     
   2458773.2864270001        31.217534933647826                7  -5.7755183314369954E-003   10.000000000000050        31.217534933647826        0.0000000000000000     
   2458773.2874269998        31.217534841686394                7  -5.7755183314369954E-003   10.000000000000050        31.217534841686394        0.0000000000000000     
   2458773.2884269999        31.217535373245298                7  -5.7755183314369954E-003   10.000000000000050        31.217535373245298        0.0000000000000000     
   2458773.2894270001        31.217535254120481                7  -5.7755183314369954E-003   10.000000000000050        31.217535254120481        0.0000000000000000     
   2458773.2904269998        31.217535014866176                7  -5.7755183314369954E-003   10.000000000000050        31.217535014866176        0.0000000000000000     
   2458773.2914270000        31.217535052058846                7  -5.7755183314369954E-003   10.000000000000050        31.217535052058846        0.0000000000000000     
   2458773.2924270001        31.217535317454988                7  -5.7755183314369954E-003   10.000000000000050        31.217535317454988        0.0000000000000000     
   2458773.2934269998        31.217535624241020                7  -5.7755183314369954E-003   10.000000000000050        31.217535624241020        0.0000000000000000     
   2458773.2944270000        31.217535153978226                7  -5.7755183314369954E-003   10.000000000000050        31.217535153978226        0.0000000000000000     
   2458773.2954270002        31.217534865350693                7  -5.7755183314369954E-003   10.000000000000050        31.217534865350693        0.0000000000000000     
   2458773.2964269998        31.217535707922998                7  -5.7755183314369954E-003   10.000000000000050        31.217535707922998        0.0000000000000000     
   2458773.2974270000        31.217535207393446                7  -5.7755183314369954E-003   10.000000000000050        31.217535207393446        0.0000000000000000     
   2458773.2984270002        31.217535095174561                7  -5.7755183314369954E-003   10.000000000000050        31.217535095174561        0.0000000000000000     
   2458773.2994269999        31.217535720046712                7  -5.7755183314369954E-003   10.000000000000050        31.217535720046712        0.0000000000000000     
   2458773.3004270000        31.217535387252383                7  -5.7755183314369954E-003   10.000000000000050        31.217535387252383        0.0000000000000000     
   2458773.3014270002        31.217535057630485                7  -5.7755183314369954E-003   10.000000000000050        31.217535057630485        0.0000000000000000     
   2458773.3024269999        31.217535379090897                7  -5.7755183314369954E-003   10.000000000000050        31.217535379090897        0.0000000000000000     
   2458773.3034270001        31.217535424568574                7  -5.7755183314369954E-003   10.000000000000050        31.217535424568574        0.0000000000000000     
   2458773.3044270002        31.217535801223768                7  -5.7755183314369954E-003   10.000000000000050        31.217535801223768        0.0000000000000000     
   2458773.3054269999        31.217535586422997                7  -5.7755183314369954E-003   10.000000000000050        31.217535586422997        0.0000000000000000     
   2458773.3064270001        31.217536187375231                7  -5.7755183314369954E-003   10.000000000000050        31.217536187375231        0.0000000000000000     
   2458773.3074269998        31.217534611631670                7  -5.7755183314369954E-003   10.000000000000050        31.217534611631670        0.0000000000000000     
   2458773.3084270000        31.217535104499561                7  -5.7755183314369954E-003   10.000000000000050        31.217535104499561        0.0000000000000000     
   2458773.3094270001        31.217534953199447                7  -5.7755183314369954E-003   10.000000000000050        31.217534953199447        0.0000000000000000     
   2458773.3104269998        31.217534803061081                7  -5.7755183314369954E-003   10.000000000000050        31.217534803061081        0.0000000000000000     
